Time (s),Power (W),Stator Body (°C)
0.0,157.3136666666667,22.183
0.1,157.3136666666667,22.183375
0.2,157.3136666666667,22.18375
0.30000000000000004,157.3136666666667,22.184125
0.4,157.3136666666667,22.1845
0.5,157.3136666666667,22.184875
0.6000000000000001,157.3136666666667,22.18525
0.7000000000000001,157.3136666666667,22.185625
0.8,157.3136666666667,22.186
0.9,157.3136666666667,22.18542857142857
1.0,157.3136666666667,22.184857142857144
1.1,157.3136666666667,22.184285714285714
1.2000000000000002,157.3136666666667,22.183714285714284
1.3,157.3136666666667,22.183142857142855
1.4000000000000001,157.3136666666667,22.18257142857143
1.5,157.3136666666667,22.182
1.6,162.2943777777778,22.182
1.7000000000000002,167.27508888888894,22.182
1.8,172.25580000000002,22.182
1.9000000000000001,177.23651111111116,22.182
2.0,182.21722222222223,22.182
2.1,187.19793333333337,22.182
2.2,192.17864444444447,22.182
2.3000000000000003,197.15935555555558,22.18228571428571
2.4000000000000004,202.1400666666667,22.18257142857143
2.5,207.1207777777778,22.18285714285714
2.6,212.1014888888889,22.183142857142858
2.7,217.0822,22.18342857142857
2.8000000000000003,222.06291111111113,22.183714285714288
2.9000000000000004,227.04362222222224,22.184
3.0,232.02433333333335,22.183857142857143
3.1,237.00504444444445,22.183714285714288
3.2,241.98575555555556,22.18357142857143
3.3000000000000003,246.9664666666667,22.18342857142857
3.4000000000000004,251.94717777777777,22.183285714285713
3.5,256.9278888888889,22.183142857142858
3.6,261.9086,22.183
3.7,266.8893111111111,22.183
3.8000000000000003,271.87002222222225,22.183
3.9000000000000004,276.8507333333333,22.183
4.0,281.8314444444444,22.183
4.1000000000000005,286.8121555555556,22.183
4.2,291.79286666666667,22.183
4.3,296.77357777777775,22.183
4.4,301.7542888888889,22.18342857142857
4.5,306.73499999999996,22.183857142857143
4.6000000000000005,314.1173111111111,22.184285714285714
4.7,321.4996222222222,22.184714285714286
4.800000000000001,328.88193333333334,22.185142857142857
4.9,336.26424444444444,22.18557142857143
5.0,343.64655555555555,22.186
5.1000000000000005,351.02886666666666,22.185714285714287
5.2,358.41117777777777,22.18542857142857
5.300000000000001,365.79348888888893,22.185142857142857
5.4,373.1758,22.184857142857144
5.5,380.5581111111111,22.18457142857143
5.6000000000000005,387.94042222222225,22.184285714285714
5.7,395.3227333333333,22.184
5.800000000000001,402.70504444444447,22.183
5.9,410.0873555555556,22.182000000000002
6.0,417.4696666666666,22.181
6.1000000000000005,424.8519777777778,22.18
6.2,432.2342888888889,22.179
6.300000000000001,439.61660000000006,22.178
6.4,446.99891111111117,22.177
6.5,454.3812222222222,22.177285714285713
6.6000000000000005,461.7635333333334,22.17757142857143
6.7,469.1458444444445,22.177857142857142
6.800000000000001,476.5281555555556,22.178142857142856
6.9,483.9104666666667,22.17842857142857
7.0,491.2927777777778,22.178714285714285
7.1000000000000005,498.6750888888889,22.179
7.2,506.05740000000003,22.177857142857142
7.300000000000001,513.4397111111111,22.176714285714283
7.4,520.8220222222222,22.175571428571427
7.5,528.2043333333334,22.17442857142857
7.6000000000000005,531.6160444444445,22.173285714285715
7.7,535.0277555555556,22.172142857142855
7.800000000000001,538.4394666666667,22.171
7.9,541.8511777777778,22.169142857142855
8.0,545.2628888888889,22.167285714285715
8.1,548.6745999999999,22.16542857142857
8.200000000000001,552.0863111111112,22.16357142857143
8.3,555.4980222222222,22.161714285714286
8.4,558.9097333333333,22.159857142857145
8.5,562.3214444444444,22.158
8.6,565.7331555555555,22.156714285714287
8.700000000000001,569.1448666666666,22.155428571428573
8.8,572.5565777777778,22.15414285714286
8.9,575.9682888888889,22.152857142857144
9.0,579.3799999999999,22.15157142857143
9.1,582.791711111111,22.150285714285715
9.200000000000001,586.2034222222222,22.149
9.3,589.6151333333332,22.14857142857143
9.4,593.0268444444444,22.148142857142858
9.5,596.4385555555555,22.147714285714287
9.600000000000001,599.8502666666666,22.147285714285715
9.700000000000001,603.2619777777777,22.146857142857144
9.8,606.6736888888888,22.146428571428572
9.9,610.0853999999999,22.146
10.0,613.497111111111,22.146
10.100000000000001,616.9088222222222,22.146
10.200000000000001,620.3205333333333,22.146
10.3,623.7322444444443,22.146
10.4,627.1439555555554,22.146
10.5,630.5556666666665,22.146
10.600000000000001,630.5123888888887,22.146
10.700000000000001,630.469111111111,22.147428571428573
10.8,630.4258333333332,22.148857142857143
10.9,630.3825555555554,22.150285714285715
11.0,630.3392777777776,22.151714285714284
11.100000000000001,630.2959999999999,22.153142857142857
11.200000000000001,630.2527222222221,22.154571428571426
11.3,630.2094444444443,22.156
11.4,630.1661666666665,22.15585714285714
11.5,630.1228888888888,22.155714285714286
11.600000000000001,630.079611111111,22.155571428571427
11.700000000000001,630.0363333333332,22.155428571428573
11.8,629.9930555555554,22.155285714285714
11.9,629.9497777777777,22.15514285714286
12.0,629.9064999999999,22.155
12.100000000000001,629.8632222222221,22.156285714285715
12.200000000000001,629.8199444444444,22.15757142857143
12.3,629.7766666666666,22.158857142857144
12.4,629.7333888888888,22.16014285714286
12.5,629.690111111111,22.161428571428573
12.600000000000001,629.6468333333333,22.162714285714287
12.700000000000001,629.6035555555555,22.164
12.8,629.5602777777777,22.165714285714287
12.9,629.5169999999999,22.167428571428573
13.0,629.4737222222222,22.16914285714286
13.100000000000001,629.4304444444444,22.17085714285714
13.200000000000001,629.3871666666666,22.172571428571427
13.3,629.3438888888888,22.174285714285713
13.4,629.3006111111112,22.176
13.5,629.2573333333333,22.177714285714284
13.600000000000001,628.8968,22.17942857142857
13.700000000000001,628.5362666666667,22.181142857142856
13.8,628.1757333333334,22.18285714285714
13.9,627.8152,22.184571428571427
14.0,627.4546666666668,22.186285714285713
14.100000000000001,627.0941333333334,22.188
14.200000000000001,626.7336,22.19085714285714
14.3,626.3730666666667,22.193714285714286
14.4,626.0125333333334,22.196571428571428
14.5,625.652,22.19942857142857
14.600000000000001,625.2914666666667,22.20228571428571
14.700000000000001,624.9309333333334,22.205142857142857
14.8,624.5704000000001,22.208
14.9,624.2098666666667,22.209124999999997
15.0,623.8493333333333,22.21025
15.100000000000001,623.4888000000001,22.211375
15.200000000000001,623.1282666666667,22.2125
15.3,622.7677333333334,22.213624999999997
15.4,622.4072000000001,22.21475
15.5,622.0466666666667,22.215874999999997
15.600000000000001,621.6861333333334,22.217
15.700000000000001,621.3256000000001,22.22142857142857
15.8,620.9650666666668,22.22585714285714
15.9,620.6045333333334,22.230285714285714
16.0,620.2440000000001,22.234714285714286
16.1,619.8834666666668,22.23914285714286
16.2,619.5229333333334,22.24357142857143
16.3,619.1624,22.248
16.400000000000002,618.8018666666668,22.25114285714286
16.5,618.4413333333334,22.254285714285714
16.6,618.5805777777779,22.257428571428573
16.7,618.7198222222223,22.260571428571428
16.8,618.8590666666668,22.263714285714286
16.900000000000002,618.9983111111112,22.26685714285714
17.0,619.1375555555557,22.27
17.1,619.2768000000001,22.275285714285715
17.2,619.4160444444445,22.280571428571427
17.3,619.555288888889,22.285857142857143
17.400000000000002,619.6945333333334,22.291142857142855
17.5,619.8337777777779,22.29642857142857
17.6,619.9730222222223,22.301714285714283
17.7,620.1122666666668,22.307
17.8,620.2515111111112,22.312285714285714
17.900000000000002,620.3907555555556,22.317571428571426
18.0,620.53,22.322857142857142
18.1,620.6692444444444,22.328142857142858
18.2,620.8084888888889,22.333428571428573
18.3,620.9477333333333,22.338714285714286
18.400000000000002,621.0869777777777,22.344
18.5,621.2262222222222,22.352285714285717
18.6,621.3654666666666,22.36057142857143
18.7,621.5047111111111,22.368857142857145
18.8,621.6439555555555,22.377142857142857
18.900000000000002,621.7832,22.385428571428573
19.0,621.9224444444444,22.393714285714285
19.1,622.0616888888889,22.402
19.200000000000003,622.2009333333333,22.41
19.3,622.3401777777777,22.418
19.400000000000002,622.4794222222222,22.426
19.5,622.6186666666666,22.434
19.6,621.9083888888888,22.442
19.700000000000003,621.1981111111111,22.45
19.8,620.4878333333332,22.458
19.900000000000002,619.7775555555555,22.46642857142857
20.0,619.0672777777777,22.474857142857143
20.1,618.357,22.483285714285714
20.200000000000003,617.6467222222221,22.491714285714284
20.3,616.9364444444444,22.500142857142855
20.400000000000002,616.2261666666666,22.50857142857143
20.5,615.5158888888889,22.517
20.6,614.805611111111,22.52657142857143
20.700000000000003,614.0953333333333,22.536142857142856
20.8,613.3850555555555,22.545714285714286
20.900000000000002,612.6747777777778,22.555285714285713
21.0,611.9645,22.564857142857143
21.1,611.2542222222222,22.57442857142857
21.200000000000003,610.5439444444444,22.584
21.3,609.8336666666667,22.595142857142857
21.400000000000002,609.1233888888888,22.606285714285715
21.5,608.4131111111111,22.617428571428572
21.6,607.7028333333333,22.62857142857143
21.700000000000003,606.9925555555556,22.639714285714284
21.8,606.2822777777777,22.65085714285714
21.900000000000002,605.572,22.662
22.0,604.8617222222222,22.675571428571427
22.1,604.1514444444445,22.68914285714286
22.200000000000003,603.4411666666666,22.702714285714286
22.3,602.7308888888889,22.716285714285714
22.400000000000002,602.0206111111111,22.729857142857142
22.5,601.3103333333333,22.743428571428574
22.6,600.9731666666667,22.757
22.700000000000003,600.636,22.771428571428572
22.8,600.2988333333334,22.785857142857143
22.900000000000002,599.9616666666667,22.800285714285714
23.0,599.6245,22.814714285714288
23.1,599.2873333333333,22.82914285714286
23.200000000000003,598.9501666666666,22.84357142857143
23.3,598.613,22.858
23.400000000000002,598.2758333333334,22.862857142857145
23.5,597.9386666666667,22.867714285714285
23.6,597.6015,22.87257142857143
23.700000000000003,597.2643333333333,22.87742857142857
23.8,596.9271666666667,22.882285714285715
23.900000000000002,596.59,22.887142857142855
24.0,596.2528333333333,22.892
24.1,595.9156666666667,22.908142857142856
24.200000000000003,595.5785,22.924285714285713
24.3,595.2413333333334,22.94042857142857
24.400000000000002,594.9041666666667,22.95657142857143
24.5,594.567,22.972714285714286
24.6,594.2298333333333,22.988857142857142
24.700000000000003,593.8926666666666,23.005
24.8,593.5555,23.021428571428572
24.900000000000002,593.2183333333334,23.037857142857142
25.0,592.8811666666667,23.054285714285715
25.1,592.544,23.070714285714285
25.200000000000003,592.2068333333333,23.087142857142858
25.3,591.8696666666667,23.10357142857143
25.400000000000002,591.5325,23.12
25.5,591.1953333333333,23.140285714285714
25.6,591.4503444444445,23.16057142857143
25.700000000000003,591.7053555555556,23.180857142857143
25.8,591.9603666666667,23.20114285714286
25.900000000000002,592.2153777777778,23.22142857142857
26.0,592.4703888888889,23.241714285714288
26.1,592.7254,23.262
26.200000000000003,592.9804111111112,23.28242857142857
26.3,593.2354222222222,23.302857142857142
26.400000000000002,593.4904333333333,23.323285714285717
26.5,593.7454444444444,23.343714285714288
26.6,594.0004555555555,23.36414285714286
26.700000000000003,594.2554666666666,23.38457142857143
26.8,594.5104777777777,23.405
26.900000000000002,594.7654888888889,23.42571428571429
27.0,595.0205,23.446428571428573
27.1,595.2755111111111,23.467142857142857
27.200000000000003,595.5305222222222,23.487857142857145
27.3,595.7855333333333,23.50857142857143
27.400000000000002,596.0405444444444,23.529285714285717
27.5,596.2955555555556,23.55
27.6,596.5505666666667,23.571571428571428
27.700000000000003,596.8055777777778,23.59314285714286
27.8,597.0605888888888,23.614714285714285
27.900000000000002,597.3155999999999,23.636285714285716
28.0,597.570611111111,23.657857142857143
28.1,597.8256222222221,23.679428571428573
28.200000000000003,598.0806333333333,23.701
28.3,598.3356444444444,23.725857142857144
28.400000000000002,598.5906555555555,23.750714285714285
28.5,598.8456666666666,23.77557142857143
28.6,598.0364555555554,23.800428571428572
28.700000000000003,597.2272444444444,23.825285714285716
28.8,596.4180333333333,23.850142857142856
28.900000000000002,595.6088222222221,23.875
29.0,594.7996111111111,23.899142857142856
29.1,593.9903999999999,23.923285714285715
29.200000000000003,593.1811888888889,23.94742857142857
29.3,592.3719777777777,23.97157142857143
29.400000000000002,591.5627666666666,23.995714285714286
29.5,590.7535555555555,24.01985714285714
29.6,589.9443444444444,24.044
29.700000000000003,589.1351333333333,24.0655
29.8,588.3259222222222,24.087
29.900000000000002,587.516711111111,24.1085
30.0,586.7075,24.130000000000003
30.1,585.8982888888888,24.151500000000002
30.200000000000003,585.0890777777778,24.173000000000002
30.3,584.2798666666666,24.1945
30.400000000000002,583.4706555555555,24.216
30.5,582.6614444444444,24.243428571428574
30.6,581.8522333333333,24.270857142857146
30.700000000000003,581.0430222222222,24.298285714285715
30.8,580.2338111111111,24.325714285714287
30.900000000000002,579.4245999999999,24.35314285714286
31.0,578.6153888888889,24.38057142857143
31.1,577.8061777777777,24.408
31.200000000000003,576.9969666666667,24.43642857142857
31.3,576.1877555555556,24.464857142857145
31.400000000000002,575.3785444444444,24.493285714285715
31.5,574.5693333333334,24.521714285714285
31.6,574.9741888888889,24.55014285714286
31.700000000000003,575.3790444444445,24.57857142857143
31.8,575.7839,24.607
31.900000000000002,576.1887555555556,24.636
32.0,576.5936111111112,24.665
32.1,576.9984666666667,24.694
32.2,577.4033222222223,24.723
32.300000000000004,577.8081777777778,24.752
32.4,578.2130333333333,24.781
32.5,578.617888888889,24.81
32.6,579.0227444444445,24.837714285714284
32.7,579.4276,24.86542857142857
32.800000000000004,579.8324555555556,24.89314285714286
32.9,580.2373111111111,24.92085714285714
33.0,580.6421666666668,24.94857142857143
33.1,581.0470222222223,24.976285714285716
33.2,581.4518777777778,25.004
33.300000000000004,581.8567333333334,25.033428571428573
33.4,582.2615888888889,25.062857142857144
33.5,582.6664444444444,25.092285714285715
33.6,583.0713000000001,25.121714285714287
33.7,583.4761555555556,25.151142857142858
33.800000000000004,583.8810111111112,25.18057142857143
33.9,584.2858666666667,25.21
34.0,584.6907222222222,25.243714285714287
34.1,585.0955777777779,25.277428571428572
34.2,585.5004333333334,25.31114285714286
34.300000000000004,585.9052888888889,25.344857142857144
34.4,586.3101444444445,25.37857142857143
34.5,586.715,25.412285714285716
34.6,586.4862666666667,25.446
34.7,586.2575333333333,25.476714285714287
34.800000000000004,586.0288,25.507428571428573
34.9,585.8000666666667,25.53814285714286
35.0,585.5713333333333,25.568857142857144
35.1,585.3426,25.59957142857143
35.2,585.1138666666667,25.630285714285716
35.300000000000004,584.8851333333333,25.661000000000005
35.4,584.6564,25.69271428571429
35.5,584.4276666666666,25.72442857142857
35.6,584.1989333333333,25.75614285714286
35.7,583.9702,25.787857142857145
35.800000000000004,583.7414666666666,25.81957142857143
35.9,583.5127333333332,25.851285714285712
36.0,583.2839999999999,25.883
36.1,583.0552666666666,25.916999999999998
36.2,582.8265333333333,25.951
36.300000000000004,582.5977999999999,25.985
36.4,582.3690666666665,26.019
36.5,582.1403333333333,26.052999999999997
36.6,581.9115999999999,26.087
36.7,581.6828666666665,26.121
36.800000000000004,581.4541333333332,26.152285714285714
36.9,581.2253999999999,26.183571428571426
37.0,580.9966666666666,26.21485714285714
37.1,580.7679333333332,26.246142857142857
37.2,580.5391999999998,26.277428571428572
37.300000000000004,580.3104666666665,26.308714285714288
37.4,580.0817333333332,26.34
37.5,579.8529999999998,26.37457142857143
37.6,579.8522333333332,26.409142857142857
37.7,579.8514666666665,26.443714285714286
37.800000000000004,579.8506999999998,26.478285714285715
37.9,579.8499333333332,26.512857142857143
38.0,579.8491666666665,26.547428571428572
38.1,579.8483999999999,26.582
38.2,579.8476333333332,26.619142857142858
38.300000000000004,579.8468666666665,26.656285714285715
38.400000000000006,579.8460999999999,26.693428571428573
38.5,579.8453333333332,26.73057142857143
38.6,579.8445666666665,26.767714285714288
38.7,579.8437999999999,26.804857142857145
38.800000000000004,579.8430333333332,26.842000000000002
38.900000000000006,579.8422666666665,26.879857142857144
39.0,579.8414999999999,26.917714285714286
39.1,579.8407333333332,26.955571428571428
39.2,579.8399666666666,26.993428571428574
39.300000000000004,579.8391999999999,27.031285714285715
39.400000000000006,579.8384333333332,27.069142857142857
39.5,579.8376666666666,27.107
39.6,579.8368999999999,27.145714285714284
39.7,579.8361333333332,27.184428571428572
39.800000000000004,579.8353666666666,27.223142857142857
39.900000000000006,579.8345999999999,27.261857142857146
40.0,579.8338333333332,27.300571428571427
40.1,579.8330666666666,27.339285714285715
40.2,579.8322999999999,27.378
40.300000000000004,579.8315333333333,27.418000000000003
40.400000000000006,579.8307666666666,27.458000000000002
40.5,579.8299999999999,27.498
40.6,580.0664666666665,27.538
40.7,580.3029333333333,27.578000000000003
40.800000000000004,580.5393999999999,27.618000000000002
40.900000000000006,580.7758666666666,27.658000000000005
41.0,581.0123333333332,27.69914285714286
41.1,581.2488,27.740285714285715
41.2,581.4852666666666,27.781428571428574
41.300000000000004,581.7217333333333,27.822571428571433
41.400000000000006,581.9581999999999,27.863714285714288
41.5,582.1946666666665,27.904857142857143
41.6,582.4311333333333,27.946
41.7,582.6675999999999,27.984714285714286
41.800000000000004,582.9040666666666,28.023428571428575
41.900000000000006,583.1405333333332,28.06214285714286
42.0,583.377,28.100857142857144
42.1,583.6134666666666,28.13957142857143
42.2,583.8499333333332,28.178285714285714
42.300000000000004,584.0863999999999,28.217000000000002
42.400000000000006,584.3228666666665,28.25814285714286
42.5,584.5593333333333,28.299285714285713
42.6,584.7957999999999,28.34042857142857
42.7,585.0322666666666,28.38157142857143
42.800000000000004,585.2687333333332,28.422714285714285
42.900000000000006,585.5052,28.463857142857144
43.0,585.7416666666666,28.505
43.1,585.9781333333332,28.544142857142855
43.2,586.2145999999999,28.583285714285715
43.300000000000004,586.4510666666665,28.62242857142857
43.400000000000006,586.6875333333332,28.66157142857143
43.5,586.9239999999999,28.700714285714284
43.6,586.2955555555554,28.739857142857144
43.7,585.667111111111,28.779
43.800000000000004,585.0386666666665,28.81385714285714
43.900000000000006,584.410222222222,28.848714285714287
44.0,583.7817777777777,28.88357142857143
44.1,583.1533333333332,28.91842857142857
44.2,582.5248888888888,28.953285714285716
44.300000000000004,581.8964444444443,28.988142857142858
44.400000000000006,581.2679999999999,29.023000000000003
44.5,580.6395555555555,29.064
44.6,580.0111111111111,29.105
44.7,579.3826666666666,29.146
44.800000000000004,578.7542222222221,29.187
44.900000000000006,578.1257777777777,29.228
45.0,577.4973333333332,29.269
45.1,576.8688888888888,29.31
45.2,576.2404444444444,29.34675
45.300000000000004,575.612,29.3835
45.400000000000006,574.9835555555555,29.42025
45.5,574.3551111111111,29.457
45.6,573.7266666666667,29.49375
45.7,573.0982222222223,29.5305
45.800000000000004,572.4697777777777,29.56725
45.900000000000006,571.8413333333333,29.604000000000003
46.0,571.212888888889,29.649142857142856
46.1,570.5844444444444,29.694285714285716
46.2,569.956,29.739428571428572
46.300000000000004,569.3275555555556,29.784571428571432
46.400000000000006,568.6991111111112,29.82971428571429
46.5,568.0706666666667,29.874857142857145
46.6,568.2293222222223,29.92
46.7,568.3879777777779,29.964571428571432
46.800000000000004,568.5466333333334,30.00914285714286
