Time (s),Power (W),Winding Temp (°C)
0.0,165.77880000000002,22.139
0.1,165.77880000000002,22.140125
0.2,165.77880000000002,22.14125
0.30000000000000004,165.77880000000002,22.142375
0.4,165.77880000000002,22.1435
0.5,165.77880000000002,22.144625
0.6000000000000001,165.77880000000002,22.14575
0.7000000000000001,165.77880000000002,22.146875
0.8,165.77880000000002,22.148
0.9,165.77880000000002,22.149428571428572
1.0,165.77880000000002,22.15085714285714
1.1,165.77880000000002,22.152285714285714
1.2000000000000002,165.77880000000002,22.153714285714287
1.3,165.77880000000002,22.15514285714286
1.4000000000000001,165.77880000000002,22.15657142857143
1.5,165.77880000000002,22.158
1.6,165.77880000000002,22.158428571428573
1.7000000000000002,165.77880000000002,22.158857142857144
1.8,165.77880000000002,22.159285714285716
1.9000000000000001,165.77880000000002,22.159714285714287
2.0,165.77880000000002,22.16014285714286
2.1,165.77880000000002,22.16057142857143
2.2,165.77880000000002,22.161
2.3000000000000003,165.77880000000002,22.15257142857143
2.4000000000000004,165.77880000000002,22.144142857142857
2.5,165.77880000000002,22.135714285714286
2.6,173.57732400000003,22.127285714285716
2.7,181.37584800000002,22.118857142857145
2.8000000000000003,189.17437200000003,22.11042857142857
2.9000000000000004,196.97289600000005,22.102
3.0,204.77142000000003,22.103
3.1,212.56994400000002,22.104
3.2,220.36846800000004,22.105
3.3000000000000003,228.16699200000005,22.106
3.4000000000000004,235.96551600000004,22.107000000000003
3.5,243.76404000000002,22.108
3.6,251.562564,22.109
3.7,259.36108800000005,22.109428571428573
3.8000000000000003,267.15961200000004,22.109857142857145
3.9000000000000004,274.9581360000001,22.110285714285716
4.0,282.75666,22.110714285714284
4.1000000000000005,290.55518400000005,22.111142857142855
4.2,298.35370800000004,22.111571428571427
4.3,306.152232,22.112
4.4,313.95075600000007,22.111714285714285
4.5,321.74928,22.11142857142857
4.6000000000000005,329.54780400000004,22.111142857142855
4.7,337.346328,22.110857142857142
4.800000000000001,345.14485200000007,22.11057142857143
4.9,352.94337600000006,22.110285714285713
5.0,360.7419,22.11
5.1000000000000005,368.54042400000003,22.110142857142858
5.2,376.3389480000001,22.110285714285713
5.300000000000001,384.1374720000001,22.11042857142857
5.4,391.93599600000005,22.11057142857143
5.5,399.73452000000003,22.110714285714288
5.6000000000000005,407.5330440000001,22.110857142857142
5.7,415.33156800000006,22.111
5.800000000000001,423.1300920000001,22.110714285714288
5.9,430.92861600000003,22.11042857142857
6.0,438.7271400000001,22.110142857142858
6.1000000000000005,446.5256640000001,22.109857142857145
6.2,454.32418800000005,22.10957142857143
6.300000000000001,462.1227120000001,22.109285714285715
6.4,469.921236,22.109
6.5,477.71976000000006,22.109285714285715
6.6000000000000005,485.5182840000001,22.10957142857143
6.7,493.31680800000004,22.109857142857145
6.800000000000001,501.1153320000001,22.110142857142858
6.9,508.913856,22.11042857142857
7.0,516.71238,22.110714285714288
7.1000000000000005,524.5109040000001,22.111
7.2,532.309428,22.111
7.300000000000001,540.1079520000001,22.111
7.4,547.9064760000001,22.111
7.5,555.705,22.111
7.6000000000000005,557.186016,22.111
7.7,558.6670320000001,22.111
7.800000000000001,560.148048,22.111
7.9,561.6290640000001,22.11114285714286
8.0,563.11008,22.111285714285714
8.1,564.591096,22.111428571428572
8.200000000000001,566.0721120000001,22.111571428571427
8.3,567.553128,22.111714285714285
8.4,569.0341440000001,22.11185714285714
8.5,570.51516,22.112
8.6,571.996176,22.136714285714284
8.700000000000001,573.4771920000001,22.16142857142857
8.8,574.958208,22.186142857142855
8.9,576.4392240000001,22.210857142857144
9.0,577.92024,22.23557142857143
9.1,579.401256,22.260285714285715
9.200000000000001,580.8822720000001,22.285
9.3,582.363288,22.335
9.4,583.8443040000001,22.385
9.5,585.32532,22.435000000000002
9.600000000000001,586.8063360000001,22.485000000000003
9.700000000000001,588.287352,22.535000000000004
9.8,589.768368,22.585
9.9,591.2493840000001,22.635
10.0,592.7304,22.70157142857143
10.100000000000001,594.2114160000001,22.76814285714286
10.200000000000001,595.692432,22.834714285714288
10.3,597.173448,22.901285714285716
10.4,598.6544640000001,22.96785714285714
10.5,600.13548,23.03442857142857
10.600000000000001,601.6164960000001,23.101
10.700000000000001,603.097512,23.18342857142857
10.8,604.578528,23.265857142857143
10.9,606.0595440000001,23.348285714285712
11.0,607.54056,23.430714285714284
11.100000000000001,609.0215760000001,23.513142857142856
11.200000000000001,610.502592,23.59557142857143
11.3,611.983608,23.678
11.4,613.4646240000001,23.762285714285714
11.5,614.94564,23.84657142857143
11.600000000000001,616.4266560000001,23.930857142857146
11.700000000000001,617.907672,24.01514285714286
11.8,619.388688,24.09942857142857
11.9,620.8697040000001,24.183714285714288
12.0,622.35072,24.268
12.100000000000001,623.8317360000001,24.35871428571429
12.200000000000001,625.312752,24.449428571428573
12.3,626.793768,24.540142857142857
12.4,628.2747840000001,24.630857142857142
12.5,629.7558,24.72157142857143
12.600000000000001,629.610132,24.812285714285714
12.700000000000001,629.464464,24.903
12.8,629.318796,24.984285714285715
12.9,629.173128,25.065571428571428
13.0,629.02746,25.146857142857144
13.100000000000001,628.881792,25.22814285714286
13.200000000000001,628.736124,25.309428571428572
13.3,628.590456,25.39071428571429
13.4,628.444788,25.472000000000005
13.5,628.29912,25.639000000000003
13.600000000000001,628.153452,25.806000000000004
13.700000000000001,628.007784,25.973000000000003
13.8,627.862116,26.14
13.9,627.716448,26.307
14.0,627.57078,26.473999999999997
14.100000000000001,627.425112,26.641
14.200000000000001,627.279444,26.894
14.3,627.133776,27.147
14.4,626.988108,27.399999999999995
14.5,626.84244,27.652999999999995
14.600000000000001,626.696772,27.906
14.700000000000001,626.551104,28.159
14.8,626.405436,28.412
14.9,626.259768,28.643749999999997
15.0,626.1141,28.875499999999995
15.100000000000001,625.9684320000001,29.10725
15.200000000000001,625.8227640000001,29.339
15.3,625.6770960000001,29.570749999999997
15.4,625.5314280000001,29.802499999999995
15.5,625.3857600000001,30.034249999999997
15.600000000000001,625.2400920000001,30.266
15.700000000000001,625.0944240000001,30.563571428571425
15.8,624.9487560000001,30.861142857142852
15.9,624.8030880000001,31.158714285714282
16.0,624.6574200000001,31.45628571428571
16.1,624.5117520000001,31.753857142857143
16.2,624.3660840000001,32.051428571428566
16.3,624.2204160000001,32.349
16.400000000000002,624.0747480000001,32.653
16.5,623.9290800000001,32.956999999999994
16.6,623.7834120000001,33.261
16.7,623.6377440000001,33.56499999999999
16.8,623.4920760000001,33.869
16.900000000000002,623.3464080000001,34.173
17.0,623.2007400000001,34.477
17.1,623.0550720000001,34.80714285714286
17.2,622.9094040000001,35.13728571428571
17.3,622.7637360000001,35.46742857142857
17.400000000000002,622.6180680000001,35.79757142857143
17.5,622.4724000000001,36.12771428571428
17.6,622.0497600000001,36.457857142857144
17.7,621.6271200000001,36.788
17.8,621.2044800000001,37.14914285714286
17.900000000000002,620.7818400000001,37.51028571428572
18.0,620.3592000000001,37.871428571428574
18.1,619.9365600000001,38.23257142857144
18.2,619.5139200000001,38.59371428571429
18.3,619.0912800000001,38.95485714285715
18.400000000000002,618.6686400000001,39.31600000000002
18.5,618.2460000000001,39.68500000000001
18.6,617.8233600000001,40.05400000000001
18.7,617.4007200000001,40.423
18.8,616.9780800000001,40.792
18.900000000000002,616.5554400000001,41.16100000000001
19.0,616.1328000000001,41.529999999999994
19.1,615.7101600000001,41.899
19.200000000000003,615.2875200000001,42.265285714285724
19.3,614.8648800000001,42.63157142857143
19.400000000000002,614.4422400000001,42.99785714285715
19.5,614.0196000000001,43.36414285714285
19.6,613.5969600000001,43.730428571428575
19.700000000000003,613.1743200000001,44.09671428571429
19.8,612.7516800000001,44.463
19.900000000000002,612.3290400000001,44.82128571428572
20.0,611.9064000000001,45.17957142857143
20.1,611.4837600000001,45.53785714285715
20.200000000000003,611.0611200000001,45.89614285714286
20.3,610.6384800000001,46.25442857142857
20.400000000000002,610.2158400000001,46.61271428571429
20.5,609.7932000000001,46.971
20.6,609.3705600000001,47.32271428571429
20.700000000000003,608.9479200000001,47.67442857142858
20.8,608.5252800000001,48.02614285714286
20.900000000000002,608.1026400000001,48.37785714285715
21.0,607.6800000000001,48.72957142857143
21.1,607.2573600000001,49.08128571428572
21.200000000000003,606.8347200000001,49.433000000000014
21.3,606.4120800000001,49.76871428571429
21.400000000000002,605.9894400000001,50.104428571428585
21.5,605.5668000000001,50.44014285714286
21.6,605.14416,50.77585714285715
21.700000000000003,604.72152,51.111571428571445
21.8,604.29888,51.44728571428572
21.900000000000002,603.87624,51.783000000000015
22.0,603.4536,52.10614285714286
22.1,603.03096,52.429285714285726
22.200000000000003,602.60832,52.75242857142858
22.3,602.18568,53.07557142857143
22.400000000000002,601.76304,53.39871428571429
22.5,601.3404,53.72185714285714
22.6,601.226272,54.045
22.700000000000003,601.1121440000001,54.337857142857146
22.8,600.998016,54.630714285714284
22.900000000000002,600.8838880000001,54.923571428571435
23.0,600.76976,55.216428571428565
23.1,600.6556320000001,55.50928571428572
23.200000000000003,600.541504,55.80214285714286
23.3,600.4273760000001,56.095
23.400000000000002,600.313248,56.39342857142857
23.5,600.19912,56.69185714285714
23.6,600.084992,56.99028571428572
23.700000000000003,599.970864,57.28871428571429
23.8,599.8567360000001,57.58714285714286
23.900000000000002,599.742608,57.88557142857143
24.0,599.6284800000001,58.184
24.1,599.514352,58.47314285714286
24.200000000000003,599.400224,58.762285714285724
24.3,599.286096,59.05142857142857
24.400000000000002,599.171968,59.34057142857144
24.5,599.05784,59.629714285714286
24.6,598.943712,59.91885714285715
24.700000000000003,598.8295840000001,60.208000000000006
24.8,598.715456,60.49371428571429
24.900000000000002,598.6013280000001,60.77942857142858
25.0,598.4872,61.06514285714286
25.1,598.373072,61.35085714285715
25.200000000000003,598.258944,61.636571428571436
25.3,598.144816,61.92228571428572
25.400000000000002,598.030688,62.208000000000006
25.5,597.91656,62.45614285714286
25.6,597.8024320000001,62.70428571428572
25.700000000000003,597.688304,62.95242857142858
25.8,597.5741760000001,63.20057142857143
25.900000000000002,597.460048,63.44871428571429
26.0,597.34592,63.69685714285714
26.1,597.231792,63.945
26.200000000000003,597.117664,64.19542857142858
26.3,597.003536,64.44585714285714
26.400000000000002,596.889408,64.69628571428572
26.5,596.7752800000001,64.94671428571428
26.6,596.661152,65.19714285714286
26.700000000000003,596.547024,65.44757142857144
26.8,596.432896,65.69800000000001
26.900000000000002,596.318768,65.95057142857144
27.0,596.20464,66.20314285714285
27.1,596.090512,66.4557142857143
27.200000000000003,595.976384,66.70828571428572
27.3,595.862256,66.96085714285714
27.400000000000002,595.7481280000001,67.21342857142857
27.5,595.634,67.466
27.6,595.363276,67.70071428571428
27.700000000000003,595.092552,67.93542857142857
27.8,594.821828,68.17014285714285
27.900000000000002,594.551104,68.40485714285714
28.0,594.28038,68.63957142857141
28.1,594.0096560000001,68.8742857142857
28.200000000000003,593.738932,69.109
28.3,593.468208,69.32342857142856
28.400000000000002,593.197484,69.53785714285713
28.5,592.9267600000001,69.7522857142857
28.6,592.656036,69.96671428571429
28.700000000000003,592.385312,70.18114285714286
28.8,592.114588,70.39557142857143
28.900000000000002,591.843864,70.61000000000001
29.0,591.57314,70.82271428571428
29.1,591.302416,71.03542857142858
29.200000000000003,591.031692,71.24814285714287
29.3,590.760968,71.46085714285715
29.400000000000002,590.490244,71.67357142857144
29.5,590.21952,71.88628571428572
29.6,589.948796,72.099
29.700000000000003,589.678072,72.28025000000001
29.8,589.407348,72.4615
29.900000000000002,589.136624,72.64275
30.0,588.8659,72.82400000000001
30.1,588.595176,73.00525
30.200000000000003,588.324452,73.18650000000001
30.3,588.053728,73.36775000000002
30.400000000000002,587.783004,73.549
30.5,587.51228,73.73242857142858
30.6,587.2415560000001,73.91585714285715
30.700000000000003,586.970832,74.09928571428573
30.8,586.700108,74.28271428571429
30.900000000000002,586.429384,74.46614285714286
31.0,586.15866,74.64957142857142
31.1,585.887936,74.833
31.200000000000003,585.617212,75.031
31.3,585.346488,75.229
31.400000000000002,585.075764,75.427
31.5,584.80504,75.625
31.6,584.534316,75.82300000000001
31.700000000000003,584.263592,76.021
31.8,583.992868,76.219
31.900000000000002,583.722144,76.38900000000001
32.0,583.45142,76.559
32.1,583.180696,76.729
32.2,582.909972,76.899
32.300000000000004,582.639248,77.06900000000002
32.4,582.368524,77.239
32.5,582.0978,77.409
32.6,582.078588,77.5757142857143
32.7,582.059376,77.74242857142858
32.800000000000004,582.040164,77.90914285714287
32.9,582.020952,78.07585714285713
33.0,582.00174,78.24257142857142
33.1,581.982528,78.4092857142857
33.2,581.9633160000001,78.576
33.300000000000004,581.944104,78.74028571428572
33.4,581.924892,78.90457142857142
33.5,581.9056800000001,79.06885714285714
33.6,581.886468,79.23314285714285
33.7,581.867256,79.39742857142858
33.800000000000004,581.8480440000001,79.56171428571429
33.9,581.828832,79.726
34.0,581.80962,79.85642857142857
34.1,581.7904080000001,79.98685714285715
34.2,581.771196,80.11728571428571
34.300000000000004,581.751984,80.2477142857143
34.4,581.7327720000001,80.37814285714285
34.5,581.71356,80.50857142857143
34.6,581.6943480000001,80.639
34.7,581.6751360000001,80.78099999999999
34.800000000000004,581.655924,80.923
34.9,581.6367120000001,81.065
35.0,581.6175000000001,81.207
35.1,581.598288,81.349
35.2,581.5790760000001,81.491
35.300000000000004,581.5598640000001,81.63300000000001
35.4,581.540652,81.79014285714285
35.5,581.5214400000001,81.94728571428571
35.6,581.5022280000001,82.10442857142857
35.7,581.4830160000001,82.26157142857143
35.800000000000004,581.4638040000001,82.4187142857143
35.9,581.4445920000001,82.57585714285715
36.0,581.4253800000001,82.733
36.1,581.4061680000001,82.87114285714286
36.2,581.386956,83.00928571428572
36.300000000000004,581.3677440000001,83.14742857142858
36.4,581.3485320000001,83.28557142857143
36.5,581.32932,83.42371428571428
36.6,581.3101080000001,83.56185714285715
36.7,581.2908960000001,83.7
36.800000000000004,581.271684,83.81928571428571
36.9,581.2524720000001,83.93857142857142
37.0,581.2332600000001,84.05785714285715
37.1,581.2140480000002,84.17714285714285
37.2,581.1948360000001,84.29642857142858
37.300000000000004,581.1756240000001,84.41571428571429
37.4,581.1564120000002,84.535
37.5,581.1372000000001,84.68985714285714
37.6,581.1444520000001,84.84471428571429
37.7,581.1517040000001,84.99957142857143
37.800000000000004,581.1589560000001,85.15442857142858
37.9,581.1662080000001,85.3092857142857
38.0,581.1734600000001,85.46414285714286
38.1,581.1807120000001,85.619
38.2,581.1879640000001,85.73114285714286
38.300000000000004,581.1952160000001,85.84328571428571
38.400000000000006,581.2024680000001,85.95542857142857
38.5,581.2097200000001,86.06757142857143
38.6,581.216972,86.17971428571428
38.7,581.224224,86.29185714285714
38.800000000000004,581.231476,86.40400000000001
38.900000000000006,581.238728,86.52557142857144
39.0,581.24598,86.64714285714285
39.1,581.253232,86.76871428571428
39.2,581.260484,86.89028571428571
39.300000000000004,581.267736,87.01185714285714
39.400000000000006,581.274988,87.13342857142858
39.5,581.28224,87.255
39.6,581.289492,87.36442857142858
39.7,581.296744,87.47385714285714
39.800000000000004,581.303996,87.58328571428572
39.900000000000006,581.311248,87.69271428571429
40.0,581.3185000000001,87.80214285714285
40.1,581.3257520000001,87.91157142857142
40.2,581.3330040000001,88.021
40.300000000000004,581.3402560000001,88.12157142857143
40.400000000000006,581.3475080000001,88.22214285714286
40.5,581.35476,88.32271428571428
40.6,581.362012,88.42328571428571
40.7,581.369264,88.52385714285714
40.800000000000004,581.376516,88.62442857142857
40.900000000000006,581.383768,88.725
41.0,581.39102,88.81328571428571
41.1,581.398272,88.90157142857143
41.2,581.405524,88.98985714285715
41.300000000000004,581.412776,89.07814285714286
41.400000000000006,581.420028,89.16642857142858
41.5,581.42728,89.25471428571429
41.6,581.434532,89.343
41.7,581.441784,89.42742857142858
41.800000000000004,581.449036,89.51185714285715
41.900000000000006,581.456288,89.59628571428573
42.0,581.46354,89.68071428571429
42.1,581.470792,89.76514285714286
42.2,581.478044,89.84957142857144
42.300000000000004,581.485296,89.934
42.400000000000006,581.4925479999999,89.99857142857144
42.5,581.4997999999999,90.06314285714285
42.6,581.311292,90.12771428571429
42.7,581.1227839999999,90.19228571428572
42.800000000000004,580.934276,90.25685714285714
42.900000000000006,580.7457679999999,90.32142857142857
43.0,580.5572599999999,90.386
43.1,580.368752,90.45028571428571
43.2,580.1802439999999,90.51457142857143
43.300000000000004,579.991736,90.57885714285715
43.400000000000006,579.8032279999999,90.64314285714286
43.5,579.6147199999999,90.70742857142857
43.6,579.426212,90.77171428571428
43.7,579.2377039999999,90.836
43.800000000000004,579.0491959999999,90.90357142857142
43.900000000000006,578.860688,90.97114285714285
44.0,578.6721799999999,91.03871428571428
44.1,578.483672,91.10628571428572
44.2,578.2951639999999,91.17385714285714
44.300000000000004,578.1066559999999,91.24142857142857
44.400000000000006,577.918148,91.309
44.5,577.7296399999999,91.369
44.6,577.541132,91.429
44.7,577.352624,91.489
44.800000000000004,577.1641159999999,91.549
44.900000000000006,576.975608,91.60900000000001
45.0,576.7871,91.669
45.1,576.5985919999999,91.729
45.2,576.410084,91.768
45.300000000000004,576.2215759999999,91.807
45.400000000000006,576.033068,91.846
45.5,575.84456,91.88499999999999
45.6,575.6560519999999,91.92399999999999
45.7,575.467544,91.963
45.800000000000004,575.2790359999999,92.002
45.900000000000006,575.090528,92.041
46.0,574.90202,92.11942857142857
46.1,574.7135119999999,92.19785714285715
46.2,574.525004,92.27628571428572
46.300000000000004,574.3364959999999,92.3547142857143
46.400000000000006,574.1479879999999,92.43314285714287
46.5,573.95948,92.51157142857143
46.6,573.7709719999999,92.59
46.7,573.582464,92.6527142857143
46.800000000000004,573.393956,92.71542857142857
46.900000000000006,573.2054479999999,92.77814285714287
47.0,573.01694,92.84085714285715
47.1,572.828432,92.90357142857142
47.2,572.639924,92.96628571428572
47.300000000000004,572.451416,93.029
47.400000000000006,572.2629079999999,93.09985714285715
47.5,572.0744,93.17071428571428
47.6,571.963932,93.24157142857143
47.7,571.8534639999999,93.31242857142857
47.800000000000004,571.742996,93.38328571428572
47.900000000000006,571.632528,93.45414285714287
48.0,571.52206,93.525
48.1,571.4115919999999,93.60057142857143
48.2,571.301124,93.67614285714286
48.300000000000004,571.190656,93.75171428571429
48.400000000000006,571.0801879999999,93.82728571428572
48.5,570.9697199999999,93.90285714285714
48.6,570.859252,93.97842857142858
48.7,570.748784,94.054
48.800000000000004,570.6383159999999,94.11628571428572
48.900000000000006,570.527848,94.17857142857143
49.0,570.41738,94.24085714285714
49.1,570.306912,94.30314285714286
49.2,570.1964439999999,94.36542857142857
49.300000000000004,570.085976,94.42771428571429
49.400000000000006,569.975508,94.49
49.5,569.8650399999999,94.55257142857143
49.6,569.7545719999999,94.61514285714286
49.7,569.644104,94.67771428571429
49.800000000000004,569.533636,94.74028571428572
49.900000000000006,569.4231679999999,94.80285714285715
50.0,569.3127,94.86542857142857
50.1,569.202232,94.928
50.2,569.0917639999999,94.98585714285714
