Time (s),Power (W),Winding Temp (°C)
0.0,566.3584,20.992
0.1,566.3584,21.014333333333333
0.2,566.3584,21.03666666666667
0.30000000000000004,566.3584,21.059
0.4,566.3584,21.09166666666667
0.5,566.3584,21.124333333333333
0.6000000000000001,566.3584,21.157
0.7000000000000001,566.3584,21.19
0.8,566.3584,21.223
0.9,566.3584,21.256
1.0,566.3584,21.294
1.1,566.3584,21.332
1.2000000000000002,566.3584,21.37
1.3,566.3584,21.420666666666666
1.4000000000000001,566.3584,21.471333333333334
1.5,566.3584,21.522
1.6,566.3584,21.595333333333333
1.7000000000000002,566.3584,21.668666666666667
1.8,566.3584,21.742
1.9000000000000001,566.3584,21.803333333333335
2.0,566.3584,21.864666666666665
2.1,566.3584,21.926
2.2,566.3584,21.98633333333333
2.3000000000000003,566.3584,22.046666666666667
2.4000000000000004,566.3584,22.107
2.5,566.3584,22.173
2.6,566.8227919999999,22.239
2.7,567.2871839999999,22.305
2.8000000000000003,567.751576,22.373333333333335
2.9000000000000004,568.215968,22.441666666666666
3.0,568.68036,22.51
3.1,569.1447519999999,22.58366666666667
3.2,569.609144,22.657333333333334
3.3000000000000003,570.073536,22.731
3.4000000000000004,570.537928,22.806333333333335
3.5,571.0023199999999,22.881666666666668
3.6,571.4667119999999,22.957
3.7,571.931104,23.038
3.8000000000000003,572.395496,23.119
3.9000000000000004,572.859888,23.2
4.0,573.3242799999999,23.285666666666668
4.1000000000000005,573.788672,23.371333333333332
4.2,574.253064,23.457
4.3,574.717456,23.546666666666667
4.4,575.181848,23.636333333333333
4.5,575.6462399999999,23.726
4.6000000000000005,576.110632,23.819666666666667
4.7,576.575024,23.913333333333334
4.800000000000001,577.039416,24.007
4.9,577.5038079999999,24.101666666666667
5.0,577.9682,24.19633333333333
5.1000000000000005,578.432592,24.291
5.2,578.896984,24.384
5.300000000000001,579.361376,24.477
5.4,579.8257679999999,24.57
5.5,580.29016,24.673
5.6000000000000005,580.754552,24.776
5.7,581.218944,24.879
5.800000000000001,581.6833359999999,24.980666666666668
5.9,582.1477279999999,25.082333333333334
6.0,582.61212,25.184
6.1000000000000005,583.076512,25.281666666666666
6.2,583.540904,25.379333333333335
6.300000000000001,584.0052959999999,25.477
6.4,584.469688,25.582
6.5,584.93408,25.687
6.6000000000000005,585.398472,25.792
6.7,585.862864,25.884666666666668
6.800000000000001,586.327256,25.977333333333334
6.9,586.791648,26.07
7.0,587.25604,26.166666666666668
7.1000000000000005,587.720432,26.263333333333332
7.2,588.1848239999999,26.36
7.300000000000001,588.649216,26.461666666666666
7.4,589.113608,26.563333333333333
7.5,589.578,26.665
7.6000000000000005,589.280864,26.761
7.7,588.9837279999999,26.857
7.800000000000001,588.686592,26.953
7.9,588.389456,27.057666666666666
8.0,588.09232,27.162333333333333
8.1,587.795184,27.266999999999996
8.200000000000001,587.4980479999999,27.374
8.3,587.200912,27.480999999999998
8.4,586.903776,27.587999999999997
8.5,586.60664,27.68733333333333
8.6,586.309504,27.786666666666665
8.700000000000001,586.0123679999999,27.886000000000003
8.8,585.715232,27.995
8.9,585.418096,28.104000000000003
9.0,585.12096,28.213
9.1,584.823824,28.314333333333334
9.200000000000001,584.5266879999999,28.415666666666667
9.3,584.229552,28.517
9.4,583.932416,28.624666666666666
9.5,583.63528,28.732333333333333
9.600000000000001,583.3381439999999,28.84
9.700000000000001,583.0410079999999,28.955666666666666
9.8,582.743872,29.07133333333333
9.9,582.446736,29.186999999999998
10.0,582.1496,29.304
10.100000000000001,581.8524639999999,29.421000000000003
10.200000000000001,581.5553279999999,29.538000000000004
10.3,581.258192,29.64766666666667
10.4,580.961056,29.757333333333335
10.5,580.66392,29.867
10.600000000000001,580.3667839999999,29.996333333333336
10.700000000000001,580.0696479999999,30.125666666666667
10.8,579.772512,30.255
10.9,579.475376,30.37333333333333
11.0,579.17824,30.491666666666664
11.100000000000001,578.8811039999999,30.61
11.200000000000001,578.5839679999999,30.723
11.3,578.286832,30.836
11.4,577.989696,30.948999999999998
11.5,577.69256,31.071
11.600000000000001,577.3954239999999,31.193
11.700000000000001,577.0982879999999,31.315000000000005
11.8,576.801152,31.44966666666667
11.9,576.504016,31.584333333333337
12.0,576.20688,31.719
12.100000000000001,575.9097439999999,31.83866666666667
12.200000000000001,575.6126079999999,31.958333333333336
12.3,575.315472,32.078
12.4,575.018336,32.20633333333333
12.5,574.7212,32.334666666666664
12.600000000000001,574.5162359999999,32.463
12.700000000000001,574.3112719999999,32.58733333333333
12.8,574.106308,32.711666666666666
12.9,573.901344,32.836
13.0,573.69638,32.958999999999996
13.100000000000001,573.491416,33.082
13.200000000000001,573.2864519999999,33.205
13.3,573.0814879999999,33.317
13.4,572.876524,33.428999999999995
13.5,572.67156,33.541
13.600000000000001,572.466596,33.665333333333336
13.700000000000001,572.261632,33.78966666666667
13.8,572.056668,33.914
13.9,571.851704,34.04833333333333
14.0,571.64674,34.18266666666666
14.100000000000001,571.441776,34.317
14.200000000000001,571.236812,34.44733333333333
14.3,571.031848,34.577666666666666
14.4,570.826884,34.708
14.5,570.62192,34.833666666666666
14.600000000000001,570.416956,34.95933333333333
14.700000000000001,570.211992,35.085
14.8,570.007028,35.21633333333334
14.9,569.802064,35.34766666666667
15.0,569.5971,35.479
15.100000000000001,569.392136,35.564750000000004
15.200000000000001,569.187172,35.6505
15.3,568.982208,35.73625
15.4,568.777244,35.822
15.5,568.57228,35.955333333333336
15.600000000000001,568.3673160000001,36.08866666666667
15.700000000000001,568.162352,36.222
15.8,567.957388,36.33666666666667
15.9,567.752424,36.45133333333334
16.0,567.54746,36.566
16.1,567.342496,36.696000000000005
16.2,567.1375320000001,36.826
16.3,566.9325680000001,36.956
16.400000000000002,566.727604,37.101333333333336
16.5,566.52264,37.24666666666667
16.6,566.317676,37.392
16.7,566.1127120000001,37.50966666666667
16.8,565.9077480000001,37.62733333333333
16.900000000000002,565.7027840000001,37.745
17.0,565.49782,37.87933333333333
17.1,565.292856,38.01366666666667
17.2,565.087892,38.148
17.3,564.8829280000001,38.289
17.400000000000002,564.6779640000001,38.43
17.5,564.4730000000001,38.571
17.6,564.4387160000001,38.690333333333335
17.7,564.404432,38.809666666666665
17.8,564.3701480000001,38.929
17.900000000000002,564.335864,39.07033333333334
18.0,564.3015800000001,39.211666666666666
18.1,564.2672960000001,39.353
18.2,564.233012,39.491
18.3,564.1987280000001,39.629
18.400000000000002,564.164444,39.767
18.5,564.13016,39.886
18.6,564.0958760000001,40.005
18.7,564.061592,40.124
18.8,564.0273080000001,40.24566666666667
18.900000000000002,563.993024,40.367333333333335
19.0,563.95874,40.489
19.1,563.9244560000001,40.62233333333334
19.200000000000003,563.890172,40.75566666666667
19.3,563.855888,40.889
19.400000000000002,563.821604,40.97766666666667
19.5,563.78732,41.06633333333333
19.6,563.7530360000001,41.155
19.700000000000003,563.718752,41.27033333333333
19.8,563.684468,41.385666666666665
19.900000000000002,563.650184,41.501
20.0,563.6159,41.576
20.1,563.581616,41.650999999999996
20.200000000000003,563.547332,41.726
20.3,563.513048,41.81
20.400000000000002,563.478764,41.894000000000005
20.5,563.44448,41.978
20.6,563.410196,42.07033333333334
20.700000000000003,563.375912,42.162666666666674
20.8,563.341628,42.255
20.900000000000002,563.307344,42.33433333333333
21.0,563.27306,42.41366666666667
21.1,563.238776,42.493
21.200000000000003,563.204492,42.60933333333334
21.3,563.170208,42.72566666666666
21.400000000000002,563.1359239999999,42.842
21.5,563.10164,42.961
21.6,563.067356,43.08
21.700000000000003,563.033072,43.199000000000005
21.8,562.998788,43.303000000000004
21.900000000000002,562.9645039999999,43.407000000000004
22.0,562.93022,43.511
22.1,562.895936,43.660000000000004
22.200000000000003,562.8616519999999,43.809000000000005
22.3,562.827368,43.958
22.400000000000002,562.7930839999999,44.07066666666667
22.5,562.7588,44.18333333333333
22.6,562.879008,44.296
22.700000000000003,562.9992159999999,44.412
22.8,563.119424,44.528
22.900000000000002,563.2396319999999,44.644
23.0,563.35984,44.76433333333333
23.1,563.480048,44.88466666666667
23.200000000000003,563.600256,45.005
23.3,563.720464,45.089333333333336
23.400000000000002,563.8406719999999,45.17366666666667
23.5,563.96088,45.258
23.6,564.081088,45.355333333333334
23.700000000000003,564.201296,45.452666666666666
23.8,564.321504,45.55
23.900000000000002,564.4417119999999,45.655
24.0,564.56192,45.760000000000005
24.1,564.682128,45.865
24.200000000000003,564.802336,45.951
24.3,564.922544,46.037
24.400000000000002,565.042752,46.123
24.5,565.16296,46.23733333333333
24.6,565.283168,46.35166666666667
24.700000000000003,565.403376,46.46600000000001
24.8,565.523584,46.56966666666667
24.900000000000002,565.643792,46.67333333333333
25.0,565.764,46.776999999999994
25.1,565.8842080000001,46.86833333333333
25.200000000000003,566.004416,46.95966666666667
25.3,566.124624,47.051
25.400000000000002,566.244832,47.16433333333334
25.5,566.36504,47.27766666666667
25.6,566.4852480000001,47.391
25.700000000000003,566.605456,47.489333333333335
25.8,566.725664,47.587666666666664
25.900000000000002,566.845872,47.686
26.0,566.96608,47.788999999999994
26.1,567.0862880000001,47.892
26.200000000000003,567.206496,47.995000000000005
26.3,567.3267040000001,48.11266666666666
26.400000000000002,567.446912,48.230333333333334
26.5,567.56712,48.34799999999999
26.6,567.6873280000001,48.44133333333333
26.700000000000003,567.807536,48.534666666666666
26.8,567.9277440000001,48.628
26.900000000000002,568.047952,48.73366666666667
27.0,568.1681600000001,48.839333333333336
27.1,568.2883680000001,48.94500000000001
27.200000000000003,568.408576,49.06066666666667
27.3,568.5287840000001,49.17633333333333
27.400000000000002,568.648992,49.292
27.5,568.7692000000001,49.39566666666666
27.6,568.895736,49.49933333333334
27.700000000000003,569.022272,49.60300000000001
27.8,569.148808,49.74333333333333
27.900000000000002,569.275344,49.88366666666667
28.0,569.4018800000001,50.023999999999994
28.1,569.5284160000001,50.15133333333333
28.200000000000003,569.6549520000001,50.278666666666666
28.3,569.7814880000001,50.406
28.400000000000002,569.9080240000001,50.51733333333333
28.5,570.03456,50.62866666666667
28.6,570.161096,50.74000000000001
28.700000000000003,570.287632,50.86900000000001
28.8,570.414168,50.998000000000005
28.900000000000002,570.540704,51.127
29.0,570.66724,51.23433333333333
29.1,570.7937760000001,51.34166666666667
29.200000000000003,570.9203120000001,51.449000000000005
29.3,571.0468480000001,51.559
29.400000000000002,571.173384,51.669000000000004
29.5,571.29992,51.778999999999996
29.6,571.426456,51.89533333333333
29.700000000000003,571.552992,52.01166666666667
29.8,571.679528,52.128
29.900000000000002,571.806064,52.22666666666667
30.0,571.9326000000001,52.32533333333333
30.1,572.0591360000001,52.42400000000001
30.200000000000003,572.1856720000001,52.536
30.3,572.312208,52.647999999999996
30.400000000000002,572.438744,52.76
30.5,572.56528,52.87466666666666
30.6,572.691816,52.989333333333335
30.700000000000003,572.818352,53.104
30.8,572.944888,53.16875
30.900000000000002,573.071424,53.2335
31.0,573.19796,53.29825
31.1,573.3244960000001,53.36300000000001
31.200000000000003,573.451032,53.47166666666667
31.3,573.577568,53.580333333333336
31.400000000000002,573.704104,53.689
31.5,573.83064,53.79933333333333
31.6,573.957176,53.90966666666667
31.700000000000003,574.083712,54.02
31.8,574.210248,54.120000000000005
31.900000000000002,574.336784,54.220000000000006
32.0,574.4633200000001,54.32
32.1,574.589856,54.44366666666667
32.2,574.716392,54.56733333333334
32.300000000000004,574.842928,54.69100000000001
32.4,574.969464,54.82366666666667
32.5,575.096,54.95633333333334
32.6,575.099416,55.089000000000006
32.7,575.102832,55.20266666666667
32.800000000000004,575.106248,55.31633333333333
32.9,575.109664,55.42999999999999
33.0,575.11308,55.55766666666666
33.1,575.116496,55.68533333333333
33.2,575.119912,55.813
33.300000000000004,575.123328,55.93033333333334
33.4,575.126744,56.047666666666665
33.5,575.13016,56.165
33.6,575.133576,56.29533333333333
33.7,575.136992,56.42566666666667
33.800000000000004,575.140408,56.556000000000004
33.9,575.143824,56.675333333333334
34.0,575.14724,56.79466666666667
34.1,575.150656,56.91400000000001
34.2,575.154072,57.00133333333334
34.300000000000004,575.157488,57.08866666666667
34.4,575.160904,57.175999999999995
34.5,575.16432,57.282999999999994
34.6,575.167736,57.39
34.7,575.171152,57.497
34.800000000000004,575.174568,57.589666666666666
34.9,575.177984,57.68233333333333
35.0,575.1813999999999,57.775
35.1,575.184816,57.85766666666667
35.2,575.188232,57.94033333333334
35.300000000000004,575.191648,58.02300000000001
35.4,575.195064,58.12500000000001
35.5,575.19848,58.227000000000004
35.6,575.201896,58.32900000000001
35.7,575.205312,58.415000000000006
35.800000000000004,575.208728,58.501000000000005
35.9,575.212144,58.586999999999996
36.0,575.21556,58.68266666666666
36.1,575.218976,58.778333333333336
36.2,575.222392,58.874
36.300000000000004,575.225808,58.976000000000006
36.4,575.229224,59.077999999999996
36.5,575.23264,59.18
36.6,575.236056,59.263333333333335
36.7,575.239472,59.34666666666667
36.800000000000004,575.242888,59.43000000000001
36.9,575.246304,59.538000000000004
37.0,575.24972,59.646
37.1,575.253136,59.754000000000005
37.2,575.2565519999999,59.87266666666667
37.300000000000004,575.259968,59.99133333333334
37.4,575.263384,60.10999999999999
37.5,575.2668,60.20366666666666
37.6,575.650332,60.29733333333333
37.7,576.033864,60.391
37.800000000000004,576.417396,60.50366666666667
37.9,576.800928,60.61633333333333
38.0,577.18446,60.729
38.1,577.567992,60.827000000000005
38.2,577.951524,60.925000000000004
38.300000000000004,578.335056,61.02300000000001
38.400000000000006,578.7185880000001,61.11800000000001
38.5,579.10212,61.21300000000001
38.6,579.485652,61.30800000000001
38.7,579.869184,61.42700000000001
38.800000000000004,580.252716,61.546
38.900000000000006,580.636248,61.665
39.0,581.01978,61.767999999999994
39.1,581.403312,61.870999999999995
39.2,581.786844,61.974
39.300000000000004,582.170376,62.096333333333334
39.400000000000006,582.553908,62.21866666666667
39.5,582.93744,62.341
39.6,583.320972,62.49
39.7,583.704504,62.639
39.800000000000004,584.088036,62.788000000000004
39.900000000000006,584.471568,62.91066666666668
40.0,584.8551,63.03333333333334
40.1,585.238632,63.156000000000006
40.2,585.622164,63.286666666666676
40.300000000000004,586.0056960000001,63.41733333333334
40.400000000000006,586.389228,63.548
40.5,586.77276,63.67166666666666
40.6,587.156292,63.79533333333333
40.7,587.539824,63.919
40.800000000000004,587.923356,64.03533333333334
40.900000000000006,588.3068880000001,64.15166666666667
41.0,588.69042,64.268
41.1,589.073952,64.41133333333333
41.2,589.457484,64.55466666666666
41.300000000000004,589.841016,64.69800000000001
41.400000000000006,590.224548,64.83766666666668
41.5,590.60808,64.97733333333333
41.6,590.991612,65.11700000000002
41.7,591.375144,65.25133333333333
41.800000000000004,591.758676,65.38566666666667
41.900000000000006,592.142208,65.52
42.0,592.52574,65.66366666666666
42.1,592.909272,65.80733333333332
42.2,593.292804,65.951
42.300000000000004,593.676336,66.04333333333332
42.400000000000006,594.059868,66.13566666666667
42.5,594.4434,66.228
42.6,594.782816,66.33500000000001
42.7,595.122232,66.44200000000001
42.800000000000004,595.461648,66.549
42.900000000000006,595.801064,66.63933333333334
43.0,596.14048,66.72966666666667
43.1,596.4798959999999,66.82
43.2,596.819312,66.888
43.300000000000004,597.158728,66.956
43.400000000000006,597.498144,67.024
43.5,597.8375599999999,67.116
43.6,598.176976,67.208
43.7,598.516392,67.3
43.800000000000004,598.855808,67.41266666666667
43.900000000000006,599.195224,67.52533333333334
44.0,599.53464,67.638
44.1,599.874056,67.74233333333333
44.2,600.213472,67.84666666666666
44.300000000000004,600.5528879999999,67.95100000000001
44.400000000000006,600.892304,68.08333333333334
44.5,601.23172,68.21566666666666
44.6,601.571136,68.34800000000001
44.7,601.9105519999999,68.46566666666666
44.800000000000004,602.249968,68.58333333333333
44.900000000000006,602.589384,68.701
45.0,602.9287999999999,68.81333333333332
45.1,603.2682159999999,68.92566666666666
45.2,603.607632,69.038
45.300000000000004,603.947048,69.17033333333333
45.400000000000006,604.286464,69.30266666666667
45.5,604.6258799999999,69.435
45.6,604.965296,69.53666666666668
45.7,605.304712,69.63833333333334
45.800000000000004,605.644128,69.74000000000001
45.900000000000006,605.9835439999999,69.85733333333334
46.0,606.32296,69.97466666666666
46.1,606.662376,70.09200000000001
46.2,607.0017919999999,70.22500000000001
46.300000000000004,607.3412079999999,70.358
46.400000000000006,607.680624,70.491
46.5,608.02004,70.5645
46.6,608.3594559999999,70.638
46.7,608.6988719999999,70.7115
46.800000000000004,609.038288,70.78500000000001
46.900000000000006,609.377704,70.90566666666668
47.0,609.7171199999999,71.02633333333334
47.1,610.0565359999999,71.14700000000002
47.2,610.395952,71.26866666666668
47.300000000000004,610.735368,71.39033333333334
47.400000000000006,611.0747839999999,71.512
47.5,611.4141999999999,71.61733333333333
47.6,611.5968519999999,71.72266666666667
47.7,611.779504,71.828
47.800000000000004,611.9621559999999,71.95766666666667
47.900000000000006,612.1448079999999,72.08733333333333
48.0,612.32746,72.217
48.1,612.5101119999999,72.333
48.2,612.6927639999999,72.449
48.300000000000004,612.875416,72.56500000000001
48.400000000000006,613.0580679999999,72.67433333333334
48.5,613.2407199999999,72.78366666666668
48.6,613.423372,72.89300000000001
48.7,613.6060239999999,73.02466666666668
48.800000000000004,613.7886759999999,73.15633333333334
48.900000000000006,613.971328,73.288
49.0,614.1539799999999,73.40199999999999
49.1,614.3366319999999,73.51599999999999
49.2,614.519284,73.63
49.300000000000004,614.7019359999999,73.75133333333333
49.400000000000006,614.884588,73.87266666666667
49.5,615.06724,73.994
49.6,615.2498919999999,74.11366666666667
49.7,615.432544,74.23333333333333
49.800000000000004,615.615196,74.353
49.900000000000006,615.7978479999999,74.45266666666667
50.0,615.9804999999999,74.55233333333334
50.1,616.163152,74.65200000000002
50.2,616.3458039999999,74.766
50.300000000000004,616.528456,74.88000000000001
50.400000000000006,616.711108,74.994
50.5,616.8937599999999,75.11366666666666
50.6,617.076412,75.23333333333332
50.7,617.259064,75.353
50.800000000000004,617.4417159999999,75.45166666666667
50.900000000000006,617.624368,75.55033333333334
51.0,617.80702,75.649
51.1,617.9896719999999,75.77000000000001
51.2,618.172324,75.891
51.300000000000004,618.354976,76.01200000000001
51.400000000000006,618.5376279999999,76.11900000000001
51.5,618.72028,76.226
51.6,618.902932,76.333
51.7,619.0855839999999,76.42233333333334
51.800000000000004,619.268236,76.51166666666667
51.900000000000006,619.450888,76.601
52.0,619.6335399999999,76.70366666666666
52.1,619.816192,76.80633333333333
52.2,619.998844,76.909
52.300000000000004,620.1814959999999,76.976
52.400000000000006,620.364148,77.043
52.5,620.5468,77.11
52.6,620.68688,77.19233333333334
52.7,620.82696,77.27466666666668
52.800000000000004,620.96704,77.35700000000001
52.900000000000006,621.10712,77.462
53.0,621.2472,77.56700000000001
53.1,621.3872799999999,77.672
53.2,621.5273599999999,77.73633333333333
53.300000000000004,621.6674399999999,77.80066666666666
53.400000000000006,621.80752,77.865
53.5,621.9476,77.94833333333332
53.6,622.08768,78.03166666666667
53.7,622.22776,78.115
53.800000000000004,622.36784,78.19933333333333
53.900000000000006,622.50792,78.28366666666666
54.0,622.6479999999999,78.368
54.1,622.7880799999999,78.432
54.2,622.9281599999999,78.49600000000001
54.300000000000004,623.06824,78.56
54.400000000000006,623.20832,78.64833333333334
54.5,623.3484,78.73666666666668
54.6,623.48848,78.825
54.7,623.62856,78.89200000000001
54.800000000000004,623.76864,78.959
