Time (s),Power (W),Winding Temp (°C)
0.0,537.016,20.992
0.1,537.016,21.014333333333333
0.2,537.016,21.03666666666667
0.30000000000000004,537.016,21.059
0.4,537.016,21.09166666666667
0.5,537.016,21.124333333333333
0.6000000000000001,537.016,21.157
0.7000000000000001,537.016,21.19
0.8,537.016,21.223
0.9,537.016,21.256
1.0,537.016,21.294
1.1,537.016,21.332
1.2000000000000002,537.016,21.37
1.3,537.016,21.420666666666666
1.4000000000000001,537.016,21.471333333333334
1.5,537.016,21.522
1.6,539.1999222222222,21.595333333333333
1.7000000000000002,541.3838444444444,21.668666666666667
1.8,543.5677666666667,21.742
1.9000000000000001,545.7516888888888,21.803333333333335
2.0,547.935611111111,21.864666666666665
2.1,550.1195333333333,21.926
2.2,552.3034555555555,21.98633333333333
2.3000000000000003,554.4873777777777,22.046666666666667
2.4000000000000004,556.6713,22.107
2.5,558.8552222222222,22.173
2.6,561.0391444444444,22.239
2.7,563.2230666666666,22.305
2.8000000000000003,565.4069888888888,22.373333333333335
2.9000000000000004,567.590911111111,22.441666666666666
3.0,569.7748333333333,22.51
3.1,571.9587555555555,22.58366666666667
3.2,574.1426777777777,22.657333333333334
3.3000000000000003,576.3266,22.731
3.4000000000000004,578.5105222222221,22.806333333333335
3.5,580.6944444444443,22.881666666666668
3.6,582.8783666666666,22.957
3.7,585.0622888888888,23.038
3.8000000000000003,587.246211111111,23.119
3.9000000000000004,589.4301333333333,23.2
4.0,591.6140555555555,23.285666666666668
4.1000000000000005,593.7979777777778,23.371333333333332
4.2,595.9818999999999,23.457
4.3,598.1658222222221,23.546666666666667
4.4,600.3497444444444,23.636333333333333
4.5,602.5336666666666,23.726
4.6000000000000005,601.823811111111,23.819666666666667
4.7,601.1139555555554,23.913333333333334
4.800000000000001,600.4041,24.007
4.9,599.6942444444444,24.101666666666667
5.0,598.9843888888888,24.19633333333333
5.1000000000000005,598.2745333333332,24.291
5.2,597.5646777777777,24.384
5.300000000000001,596.8548222222222,24.477
5.4,596.1449666666666,24.57
5.5,595.435111111111,24.673
5.6000000000000005,594.7252555555555,24.776
5.7,594.0153999999999,24.879
5.800000000000001,593.3055444444444,24.980666666666668
5.9,592.5956888888888,25.082333333333334
6.0,591.8858333333333,25.184
6.1000000000000005,591.1759777777777,25.281666666666666
6.2,590.4661222222221,25.379333333333335
6.300000000000001,589.7562666666666,25.477
6.4,589.0464111111111,25.582
6.5,588.3365555555555,25.687
6.6000000000000005,587.6266999999999,25.792
6.7,586.9168444444443,25.884666666666668
6.800000000000001,586.2069888888889,25.977333333333334
6.9,585.4971333333333,26.07
7.0,584.7872777777777,26.166666666666668
7.1000000000000005,584.0774222222221,26.263333333333332
7.2,583.3675666666666,26.36
7.300000000000001,582.6577111111111,26.461666666666666
7.4,581.9478555555555,26.563333333333333
7.5,581.2379999999999,26.665
7.6000000000000005,581.3869222222222,26.761
7.7,581.5358444444444,26.857
7.800000000000001,581.6847666666666,26.953
7.9,581.8336888888888,27.057666666666666
8.0,581.982611111111,27.162333333333333
8.1,582.1315333333333,27.266999999999996
8.200000000000001,582.2804555555555,27.374
8.3,582.4293777777777,27.480999999999998
8.4,582.5782999999999,27.587999999999997
8.5,582.7272222222222,27.68733333333333
8.6,582.8761444444444,27.786666666666665
8.700000000000001,583.0250666666666,27.886000000000003
8.8,583.1739888888889,27.995
8.9,583.322911111111,28.104000000000003
9.0,583.4718333333333,28.213
9.1,583.6207555555555,28.314333333333334
9.200000000000001,583.7696777777777,28.415666666666667
9.3,583.9186,28.517
9.4,584.0675222222221,28.624666666666666
9.5,584.2164444444444,28.732333333333333
9.600000000000001,584.3653666666667,28.84
9.700000000000001,584.5142888888888,28.955666666666666
9.8,584.6632111111111,29.07133333333333
9.9,584.8121333333332,29.186999999999998
10.0,584.9610555555555,29.304
10.100000000000001,585.1099777777778,29.421000000000003
10.200000000000001,585.2588999999999,29.538000000000004
10.3,585.4078222222222,29.64766666666667
10.4,585.5567444444443,29.757333333333335
10.5,585.7056666666666,29.867
10.600000000000001,585.4466777777777,29.996333333333336
10.700000000000001,585.1876888888888,30.125666666666667
10.8,584.9286999999999,30.255
10.9,584.669711111111,30.37333333333333
11.0,584.4107222222221,30.491666666666664
11.100000000000001,584.1517333333333,30.61
11.200000000000001,583.8927444444444,30.723
11.3,583.6337555555555,30.836
11.4,583.3747666666666,30.948999999999998
11.5,583.1157777777777,31.071
11.600000000000001,582.8567888888888,31.193
11.700000000000001,582.5977999999999,31.315000000000005
11.8,582.338811111111,31.44966666666667
11.9,582.0798222222221,31.584333333333337
12.0,581.8208333333332,31.719
12.100000000000001,581.5618444444444,31.83866666666667
12.200000000000001,581.3028555555555,31.958333333333336
12.3,581.0438666666666,32.078
12.4,580.7848777777778,32.20633333333333
12.5,580.5258888888889,32.334666666666664
12.600000000000001,580.2669,32.463
12.700000000000001,580.0079111111111,32.58733333333333
12.8,579.7489222222222,32.711666666666666
12.9,579.4899333333333,32.836
13.0,579.2309444444444,32.958999999999996
13.100000000000001,578.9719555555555,33.082
13.200000000000001,578.7129666666666,33.205
13.3,578.4539777777777,33.317
13.4,578.1949888888888,33.428999999999995
13.5,577.9359999999999,33.541
13.600000000000001,577.7084555555555,33.665333333333336
13.700000000000001,577.480911111111,33.78966666666667
13.8,577.2533666666666,33.914
13.9,577.0258222222221,34.04833333333333
14.0,576.7982777777777,34.18266666666666
14.100000000000001,576.5707333333332,34.317
14.200000000000001,576.3431888888888,34.44733333333333
14.3,576.1156444444445,34.577666666666666
14.4,575.8881,34.708
14.5,575.6605555555556,34.833666666666666
14.600000000000001,575.4330111111111,34.95933333333333
14.700000000000001,575.2054666666667,35.085
14.8,574.9779222222222,35.21633333333334
14.9,574.7503777777778,35.34766666666667
15.0,574.5228333333333,35.479
15.100000000000001,574.2952888888889,35.564750000000004
15.200000000000001,574.0677444444444,35.6505
15.3,573.8402,35.73625
15.4,573.6126555555555,35.822
15.5,573.3851111111111,35.955333333333336
15.600000000000001,573.1575666666666,36.08866666666667
15.700000000000001,572.9300222222222,36.222
15.8,572.7024777777779,36.33666666666667
15.9,572.4749333333334,36.45133333333334
16.0,572.247388888889,36.566
16.1,572.0198444444445,36.696000000000005
16.2,571.7923000000001,36.826
16.3,571.5647555555556,36.956
16.400000000000002,571.3372111111112,37.101333333333336
16.5,571.1096666666667,37.24666666666667
16.6,570.5522222222223,37.392
16.7,569.9947777777778,37.50966666666667
16.8,569.4373333333334,37.62733333333333
16.900000000000002,568.8798888888889,37.745
17.0,568.3224444444445,37.87933333333333
17.1,567.7650000000001,38.01366666666667
17.2,567.2075555555556,38.148
17.3,566.6501111111112,38.289
17.400000000000002,566.0926666666667,38.43
17.5,565.5352222222223,38.571
17.6,564.9777777777779,38.690333333333335
17.7,564.4203333333334,38.809666666666665
17.8,563.862888888889,38.929
17.900000000000002,563.3054444444444,39.07033333333334
18.0,562.748,39.211666666666666
18.1,562.1905555555556,39.353
18.2,561.6331111111111,39.491
18.3,561.0756666666667,39.629
18.400000000000002,560.5182222222222,39.767
18.5,559.9607777777778,39.886
18.6,559.4033333333334,40.005
18.7,558.8458888888889,40.124
18.8,558.2884444444445,40.24566666666667
18.900000000000002,557.731,40.367333333333335
19.0,557.1735555555556,40.489
19.1,556.6161111111112,40.62233333333334
19.200000000000003,556.0586666666667,40.75566666666667
19.3,555.5012222222223,40.889
19.400000000000002,554.9437777777778,40.97766666666667
19.5,554.3863333333334,41.06633333333333
19.6,554.7341111111111,41.155
19.700000000000003,555.0818888888889,41.27033333333333
19.8,555.4296666666667,41.385666666666665
19.900000000000002,555.7774444444444,41.501
20.0,556.1252222222222,41.576
20.1,556.4730000000001,41.650999999999996
20.200000000000003,556.8207777777778,41.726
20.3,557.1685555555556,41.81
20.400000000000002,557.5163333333334,41.894000000000005
20.5,557.8641111111111,41.978
20.6,558.2118888888889,42.07033333333334
20.700000000000003,558.5596666666667,42.162666666666674
20.8,558.9074444444444,42.255
20.900000000000002,559.2552222222222,42.33433333333333
21.0,559.6030000000001,42.41366666666667
21.1,559.9507777777778,42.493
21.200000000000003,560.2985555555556,42.60933333333334
21.3,560.6463333333334,42.72566666666666
21.400000000000002,560.9941111111111,42.842
21.5,561.3418888888889,42.961
21.6,561.6896666666667,43.08
21.700000000000003,562.0374444444444,43.199000000000005
21.8,562.3852222222222,43.303000000000004
21.900000000000002,562.733,43.407000000000004
22.0,563.0807777777777,43.511
22.1,563.4285555555556,43.660000000000004
22.200000000000003,563.7763333333334,43.809000000000005
22.3,564.1241111111111,43.958
22.400000000000002,564.4718888888889,44.07066666666667
22.5,564.8196666666666,44.18333333333333
22.6,564.9093777777778,44.296
22.700000000000003,564.9990888888889,44.412
22.8,565.0888,44.528
22.900000000000002,565.1785111111111,44.644
23.0,565.2682222222222,44.76433333333333
23.1,565.3579333333333,44.88466666666667
23.200000000000003,565.4476444444444,45.005
23.3,565.5373555555556,45.089333333333336
23.400000000000002,565.6270666666667,45.17366666666667
23.5,565.7167777777778,45.258
23.6,565.8064888888889,45.355333333333334
23.700000000000003,565.8962,45.452666666666666
23.8,565.9859111111111,45.55
23.900000000000002,566.0756222222223,45.655
24.0,566.1653333333334,45.760000000000005
24.1,566.2550444444445,45.865
24.200000000000003,566.3447555555556,45.951
24.3,566.4344666666667,46.037
24.400000000000002,566.5241777777778,46.123
24.5,566.6138888888889,46.23733333333333
24.6,566.7036,46.35166666666667
24.700000000000003,566.7933111111112,46.46600000000001
24.8,566.8830222222223,46.56966666666667
24.900000000000002,566.9727333333334,46.67333333333333
25.0,567.0624444444445,46.776999999999994
25.1,567.1521555555556,46.86833333333333
25.200000000000003,567.2418666666667,46.95966666666667
25.3,567.3315777777779,47.051
25.400000000000002,567.421288888889,47.16433333333334
25.5,567.5110000000001,47.27766666666667
25.6,567.5553555555556,47.391
25.700000000000003,567.5997111111112,47.489333333333335
25.8,567.6440666666667,47.587666666666664
25.900000000000002,567.6884222222224,47.686
26.0,567.7327777777779,47.788999999999994
26.1,567.7771333333334,47.892
26.200000000000003,567.821488888889,47.995000000000005
26.3,567.8658444444445,48.11266666666666
26.400000000000002,567.9102000000001,48.230333333333334
26.5,567.9545555555557,48.34799999999999
26.6,567.9989111111112,48.44133333333333
26.700000000000003,568.0432666666668,48.534666666666666
26.8,568.0876222222223,48.628
26.900000000000002,568.1319777777779,48.73366666666667
27.0,568.1763333333334,48.839333333333336
27.1,568.220688888889,48.94500000000001
27.200000000000003,568.2650444444446,49.06066666666667
27.3,568.3094000000001,49.17633333333333
27.400000000000002,568.3537555555557,49.292
27.5,568.3981111111112,49.39566666666666
27.6,568.4424666666667,49.49933333333334
27.700000000000003,568.4868222222224,49.60300000000001
27.8,568.5311777777779,49.74333333333333
27.900000000000002,568.5755333333335,49.88366666666667
28.0,568.619888888889,50.023999999999994
28.1,568.6642444444445,50.15133333333333
28.200000000000003,568.7086000000002,50.278666666666666
28.3,568.7529555555557,50.406
28.400000000000002,568.7973111111113,50.51733333333333
28.5,568.8416666666668,50.62866666666667
28.6,568.8743444444445,50.74000000000001
28.700000000000003,568.9070222222224,50.86900000000001
28.8,568.9397000000001,50.998000000000005
28.900000000000002,568.9723777777779,51.127
29.0,569.0050555555557,51.23433333333333
29.1,569.0377333333334,51.34166666666667
29.200000000000003,569.0704111111112,51.449000000000005
29.3,569.103088888889,51.559
29.400000000000002,569.1357666666668,51.669000000000004
29.5,569.1684444444445,51.778999999999996
29.6,569.2011222222224,51.89533333333333
29.700000000000003,569.2338000000001,52.01166666666667
29.8,569.2664777777778,52.128
29.900000000000002,569.2991555555557,52.22666666666667
30.0,569.3318333333334,52.32533333333333
30.1,569.3645111111111,52.42400000000001
30.200000000000003,569.397188888889,52.536
30.3,569.4298666666667,52.647999999999996
30.400000000000002,569.4625444444445,52.76
30.5,569.4952222222223,52.87466666666666
30.6,569.5279,52.989333333333335
30.700000000000003,569.5605777777778,53.104
30.8,569.5932555555556,53.16875
30.900000000000002,569.6259333333334,53.2335
31.0,569.6586111111111,53.29825
31.1,569.691288888889,53.36300000000001
31.200000000000003,569.7239666666667,53.47166666666667
31.3,569.7566444444444,53.580333333333336
31.400000000000002,569.7893222222223,53.689
31.5,569.822,53.79933333333333
31.6,570.0204111111111,53.90966666666667
31.700000000000003,570.2188222222222,54.02
31.8,570.4172333333333,54.120000000000005
31.900000000000002,570.6156444444445,54.220000000000006
32.0,570.8140555555556,54.32
32.1,571.0124666666667,54.44366666666667
32.2,571.2108777777778,54.56733333333334
32.300000000000004,571.4092888888889,54.69100000000001
32.4,571.6077,54.82366666666667
32.5,571.8061111111111,54.95633333333334
32.6,572.0045222222222,55.089000000000006
32.7,572.2029333333334,55.20266666666667
32.800000000000004,572.4013444444445,55.31633333333333
32.9,572.5997555555556,55.42999999999999
33.0,572.7981666666667,55.55766666666666
33.1,572.9965777777777,55.68533333333333
33.2,573.1949888888888,55.813
33.300000000000004,573.3933999999999,55.93033333333334
33.4,573.591811111111,56.047666666666665
33.5,573.7902222222222,56.165
33.6,573.9886333333333,56.29533333333333
33.7,574.1870444444444,56.42566666666667
33.800000000000004,574.3854555555555,56.556000000000004
33.9,574.5838666666666,56.675333333333334
34.0,574.7822777777777,56.79466666666667
34.1,574.9806888888888,56.91400000000001
34.2,575.1791,57.00133333333334
34.300000000000004,575.3775111111111,57.08866666666667
34.4,575.5759222222222,57.175999999999995
34.5,575.7743333333333,57.282999999999994
34.6,576.0231666666666,57.39
34.7,576.2719999999999,57.497
34.800000000000004,576.5208333333333,57.589666666666666
34.9,576.7696666666666,57.68233333333333
35.0,577.0184999999999,57.775
35.1,577.2673333333333,57.85766666666667
35.2,577.5161666666667,57.94033333333334
35.300000000000004,577.765,58.02300000000001
35.4,578.0138333333333,58.12500000000001
35.5,578.2626666666666,58.227000000000004
35.6,578.5115,58.32900000000001
35.7,578.7603333333333,58.415000000000006
35.800000000000004,579.0091666666666,58.501000000000005
35.9,579.2579999999999,58.586999999999996
36.0,579.5068333333334,58.68266666666666
36.1,579.7556666666667,58.778333333333336
36.2,580.0045,58.874
36.300000000000004,580.2533333333333,58.976000000000006
36.4,580.5021666666667,59.077999999999996
36.5,580.751,59.18
36.6,580.9998333333333,59.263333333333335
36.7,581.2486666666666,59.34666666666667
36.800000000000004,581.4975,59.43000000000001
36.9,581.7463333333333,59.538000000000004
37.0,581.9951666666666,59.646
37.1,582.244,59.754000000000005
37.2,582.4928333333334,59.87266666666667
37.300000000000004,582.7416666666667,59.99133333333334
37.4,582.9905,60.10999999999999
37.5,583.2393333333333,60.20366666666666
37.6,583.1997333333334,60.29733333333333
37.7,583.1601333333333,60.391
37.800000000000004,583.1205333333334,60.50366666666667
37.9,583.0809333333333,60.61633333333333
38.0,583.0413333333333,60.729
38.1,583.0017333333333,60.827000000000005
38.2,582.9621333333333,60.925000000000004
38.300000000000004,582.9225333333333,61.02300000000001
38.400000000000006,582.8829333333333,61.11800000000001
38.5,582.8433333333332,61.21300000000001
38.6,582.8037333333333,61.30800000000001
38.7,582.7641333333332,61.42700000000001
38.800000000000004,582.7245333333333,61.546
38.900000000000006,582.6849333333332,61.665
39.0,582.6453333333333,61.767999999999994
39.1,582.6057333333333,61.870999999999995
39.2,582.5661333333333,61.974
39.300000000000004,582.5265333333333,62.096333333333334
39.400000000000006,582.4869333333332,62.21866666666667
39.5,582.4473333333333,62.341
39.6,582.4077333333332,62.49
39.7,582.3681333333333,62.639
39.800000000000004,582.3285333333332,62.788000000000004
39.900000000000006,582.2889333333333,62.91066666666668
40.0,582.2493333333332,63.03333333333334
40.1,582.2097333333332,63.156000000000006
40.2,582.1701333333332,63.286666666666676
40.300000000000004,582.1305333333332,63.41733333333334
40.400000000000006,582.0909333333332,63.548
40.5,582.0513333333332,63.67166666666666
40.6,582.5537333333332,63.79533333333333
40.7,583.0561333333333,63.919
40.800000000000004,583.5585333333332,64.03533333333334
40.900000000000006,584.0609333333333,64.15166666666667
41.0,584.5633333333333,64.268
41.1,585.0657333333332,64.41133333333333
41.2,585.5681333333332,64.55466666666666
41.300000000000004,586.0705333333333,64.69800000000001
41.400000000000006,586.5729333333333,64.83766666666668
41.5,587.0753333333332,64.97733333333333
41.6,587.5777333333333,65.11700000000002
41.7,588.0801333333333,65.25133333333333
41.800000000000004,588.5825333333333,65.38566666666667
41.900000000000006,589.0849333333333,65.52
42.0,589.5873333333333,65.66366666666666
42.1,590.0897333333332,65.80733333333332
42.2,590.5921333333333,65.951
42.300000000000004,591.0945333333333,66.04333333333332
42.400000000000006,591.5969333333334,66.13566666666667
42.5,592.0993333333333,66.228
42.6,592.6017333333333,66.33500000000001
42.7,593.1041333333333,66.44200000000001
42.800000000000004,593.6065333333333,66.549
42.900000000000006,594.1089333333333,66.63933333333334
43.0,594.6113333333333,66.72966666666667
43.1,595.1137333333334,66.82
43.2,595.6161333333333,66.888
43.300000000000004,596.1185333333334,66.956
43.400000000000006,596.6209333333334,67.024
43.5,597.1233333333333,67.116
43.6,597.3639,67.208
43.7,597.6044666666667,67.3
43.800000000000004,597.8450333333333,67.41266666666667
43.900000000000006,598.0856,67.52533333333334
44.0,598.3261666666666,67.638
44.1,598.5667333333333,67.74233333333333
44.2,598.8072999999999,67.84666666666666
44.300000000000004,599.0478666666667,67.95100000000001
44.400000000000006,599.2884333333333,68.08333333333334
44.5,599.529,68.21566666666666
44.6,599.7695666666666,68.34800000000001
44.7,600.0101333333333,68.46566666666666
44.800000000000004,600.2506999999999,68.58333333333333
44.900000000000006,600.4912666666667,68.701
45.0,600.7318333333333,68.81333333333332
45.1,600.9723999999999,68.92566666666666
45.2,601.2129666666666,69.038
45.300000000000004,601.4535333333332,69.17033333333333
45.400000000000006,601.6940999999999,69.30266666666667
45.5,601.9346666666665,69.435
45.6,602.1752333333333,69.53666666666668
45.7,602.4157999999999,69.63833333333334
45.800000000000004,602.6563666666666,69.74000000000001
45.900000000000006,602.8969333333332,69.85733333333334
46.0,603.1374999999999,69.97466666666666
46.1,603.3780666666665,70.09200000000001
46.2,603.6186333333333,70.22500000000001
46.300000000000004,603.8591999999999,70.358
46.400000000000006,604.0997666666666,70.491
46.5,604.3403333333332,70.5645
46.6,604.8569333333332,70.638
46.7,605.3735333333332,70.7115
46.800000000000004,605.8901333333332,70.78500000000001
46.900000000000006,606.4067333333332,70.90566666666668
47.0,606.9233333333332,71.02633333333334
47.1,607.4399333333332,71.14700000000002
47.2,607.9565333333333,71.26866666666668
47.300000000000004,608.4731333333333,71.39033333333334
47.400000000000006,608.9897333333332,71.512
47.5,609.5063333333333,71.61733333333333
47.6,610.0229333333332,71.72266666666667
47.7,610.5395333333332,71.828
47.800000000000004,611.0561333333333,71.95766666666667
47.900000000000006,611.5727333333333,72.08733333333333
48.0,612.0893333333332,72.217
48.1,612.6059333333333,72.333
48.2,613.1225333333332,72.449
48.300000000000004,613.6391333333332,72.56500000000001
48.400000000000006,614.1557333333333,72.67433333333334
48.5,614.6723333333332,72.78366666666668
